frame,y,x,mass,size,ecc,signal,raw_mass,ep,frame,particle
582,1073.0780456852792,908.9459602368867,13603.696575849515,6.390512986636871,0.15365646081675408,73.37019092304624,73615.0,0.010886754041272047,582,93
583,1071.040750631013,904.1219958298277,14336.679582512857,6.5815489645300165,0.16246743798912372,71.32415492635434,74343.0,0.014494704347703757,583,93
584,1068.4689782831454,898.3893828711202,14415.956735104917,6.503392929190538,0.16409418259950675,76.24212731354864,73261.0,0.018465083531560258,584,93
585,1064.5318926359257,892.8141225051618,14545.065045343958,6.550776840920912,0.1767773187244367,74.47713966783141,73800.0,0.015054778765655471,585,93
586,1061.0697830703475,887.566678315099,14882.083007930101,6.708195918129457,0.1589649752237464,70.80800764505331,74976.0,0.014523697088698556,586,93
587,1056.5123516556475,882.4034689756287,14509.710135258625,6.491607819927813,0.18899431595577054,77.06615247917387,73066.0,0.025892545831727228,587,93
588,1052.189046321526,878.7871662125341,14838.079717017348,6.598243098666555,0.1802076327823378,74.79685960894304,74208.0,0.02340659469222429,588,93
589,1047.4683428761098,875.148009847039,14575.724424192587,6.523292323498063,0.18421824760230873,74.58603763105769,73086.0,0.026902572250718043,589,93
590,1044.1521482173782,871.5599109376288,14808.598268213886,6.57640477429373,0.17265946254785866,75.30692651308637,73711.0,0.02828786089699413,590,93
591,1040.0117034397697,867.4172399616281,14893.021431871599,6.584032661687975,0.174608666928432,73.47523249929802,73775.0,0.013872151999465801,591,93
592,1035.9386677046264,864.3263456405693,14670.963387815495,6.579393820307812,0.18440777370441744,73.4200792317279,73770.0,0.012000208821014142,592,93
593,1031.1975980432571,861.428394756369,14679.089142243738,6.6248917873922615,0.19676737869177724,73.82508349219788,74014.0,0.022697808244839777,593,93
594,1027.311184690499,858.1618216510466,14409.971122509769,6.52029557976476,0.18030619437192136,74.80343054223883,73802.0,0.010827460700814688,594,93
595,1024.519664423862,855.2021339489316,14459.867696441945,6.608225685918055,0.18820429511075618,73.27429366739534,74058.0,0.02288235777133848,595,93
596,1019.2573001369212,852.4923296169,14344.692801588586,6.506445750889983,0.18087751953070988,74.55536538674593,73686.0,0.014550165401203956,596,93
597,1015.1212687883706,849.9717380565944,14116.418797102971,6.494190582816873,0.19368251899856478,74.7111290510707,73535.0,0.021046844941523188,597,93
598,1010.5154604336807,847.6812165587158,14138.26177750492,6.471334882535922,0.18342849892954702,74.85196322644114,73084.0,0.02948864204621683,598,93
599,1006.3319091899137,846.0781603417944,14172.806023963325,6.539767788853165,0.18790057930329299,73.21686393658975,73800.0,0.03094177867671289,599,93
600,1001.3520367788371,844.1082262501413,14044.300534945161,6.556780501072693,0.1794657166607466,71.97591561791242,74241.0,0.02714945054877508,600,93
601,997.3306047444036,842.1594052789843,14084.472691290364,6.504361280702082,0.1773814521988374,72.93996883227553,74061.0,0.025668873824739348,601,93
602,993.336661546339,840.9288558912215,14122.116008485573,6.545302542940226,0.18133243690572476,73.11330470342989,74270.0,0.02372111898637971,602,93
603,989.2418697473087,838.7539140455913,14194.225714060181,6.581140406982125,0.18976640123407376,71.81495428312766,74469.0,0.03783700639531012,603,93
604,984.4119598502892,835.5941646818645,14219.999561881523,6.5882222785208775,0.17075504803650354,70.55971201455333,74557.0,0.030764485780756287,604,93
605,979.3923040564962,833.9386381961242,14173.004802936717,6.542360859186141,0.18094154078512772,72.90032219932974,74284.0,0.029402515104380883,605,93
606,974.4636250470428,831.8531395651796,14057.096385163057,6.508248136612334,0.16760842152333694,72.02924066160615,73843.0,0.03239796133284272,606,93
607,971.1746104229693,830.0352189051887,14340.80483690243,6.517435681574658,0.17115084999238617,73.67272306188816,74279.0,0.03201701062736897,607,93
608,966.5744057871168,828.0058847169595,14232.805981083518,6.50711958940256,0.17602459621635125,72.31618609058971,73542.0,0.020881289543114936,608,93
609,962.323870088576,827.3009311832841,14321.649931814844,6.49544731283204,0.17114274184222358,73.59239829827636,73446.0,0.020648765682282737,609,93
610,959.0992694828632,826.2406664164237,14343.645080488452,6.471116603772178,0.1716867412580499,74.13485604502738,73812.0,0.016835391833741876,610,93
611,954.5029453176633,824.9641102267176,14313.100802224748,6.450453052910253,0.15961426391505087,75.67628940574564,73097.0,0.01651285299560283,611,93
612,951.2003804692454,824.7863895774485,14262.309609810149,6.4216322634484015,0.1720759368541982,74.81813423028325,72845.0,0.022871608845618546,612,93
613,947.1382152838552,824.3163481353922,14577.499484553195,6.482739803950397,0.16889667962041688,74.89780386157811,73409.0,0.026792000530423497,613,93
614,943.9853680972777,823.9615086095381,14333.69287697003,6.428777075906052,0.15339807563575356,76.22770524159759,73066.0,0.02422364741755161,614,93
615,940.094191746466,823.5881782945736,14570.619507601992,6.524396060789714,0.16802833851173726,75.57719876834139,73622.0,0.018561473525465572,615,93
616,935.978766256186,822.7272125676142,14301.556520810176,6.3724391998462515,0.15973109812042158,76.53612362960907,73131.0,0.014635559574921651,616,93
617,932.2821314831665,822.685537989081,14428.686217264261,6.462372278003539,0.1720025476304936,75.08102757505004,73385.0,0.015935083599705732,617,93
618,929.0491883773324,822.1207324822367,14248.390107475983,6.412177827625874,0.15278855519272877,74.90055454799345,73323.0,0.013566817434105555,618,93
619,925.2780296075281,822.5716949736056,14314.89496720019,6.4598875292114775,0.13480957761038034,74.33428933507099,73494.0,0.01380942575631031,619,93
620,922.0336294236172,822.9632488577348,14457.362616212022,6.4662035805243026,0.15982635043241958,75.08293438053182,73651.0,0.023832411931635676,620,93
621,918.334254706276,823.066891675638,14136.411357308985,6.428072343733512,0.14912181244498338,74.85893878292168,73105.0,0.01482745292967432,621,93
622,916.1460360805276,823.6519478255817,14139.045790556951,6.410109524073962,0.14651648032874398,75.16617899869047,73179.0,0.019481807151500455,622,93
623,912.5838714347764,824.3539887071088,14354.37382584457,6.492139783104681,0.13922106359593647,73.56954299042968,73658.0,0.01870141551552812,623,93
624,908.4496674813846,826.532484510885,14375.239667514903,6.523702025276065,0.09182044553824342,73.13044678238981,74216.0,0.024076356130303306,624,93
625,904.0991826691932,829.4180830905851,14502.994776143994,6.5594199860987334,0.11587527897250802,73.00922170179109,74506.0,0.03208126313738897,625,93
626,899.9544480775736,833.9653004848349,14695.380475410504,6.589413380564781,0.09173091886491613,72.07679001920813,75482.0,0.014751954400004413,626,93
627,895.400254656362,839.4188208818217,14498.12589154305,6.6260943020428495,0.08242175774531328,69.54773013621077,75266.0,0.01710909658803761,627,93
628,891.875564005789,843.8083941087999,14574.663379618087,6.608164617314216,0.11151164448034731,70.3110977761876,75406.0,0.022794950422378422,628,93
629,887.3231340972437,848.1128832455869,14657.132130289794,6.607804820536028,0.10546719337909023,71.26570902618451,75399.0,0.01761303030931745,629,93
630,883.4423032407408,851.7383969907407,14178.494862038422,6.556624353786533,0.10670094770529372,70.15401103612761,75052.0,0.029342772976935647,630,93
631,879.1684001617112,855.6796280642435,14135.187067499532,6.535689809075907,0.11926877646662964,70.13305355259057,75177.0,0.0369370012140527,631,93
632,875.1452158232842,858.2033979488335,14346.865951318176,6.585592384011398,0.11548203769114572,70.73992847629552,75541.0,0.024601090788539243,632,93
633,870.2712110224801,861.9219144307469,14133.043620773073,6.595746536312895,0.13166885029168518,68.05178364172096,75229.0,0.02584041351903868,633,93
634,864.664043344143,865.2442853753065,14280.51746575108,6.62946858156593,0.14099923749406562,68.9007012110113,75799.0,0.02268643850666503,634,93
635,859.2312010888057,868.6099863899285,14296.810655010428,6.61125677285287,0.0974759203278582,69.31934393803967,75595.0,0.019660161807173598,635,93
636,854.3316735347985,872.0976419413919,14300.037738837766,6.621435387694015,0.11974826823942825,67.93172689580669,75524.0,0.021991259326461104,636,93
637,848.7652042172958,874.8321738861578,14320.414735047554,6.665602982267424,0.14789745773220175,67.3005917734047,75899.0,0.02120616387848236,637,93
638,842.7526347823301,877.3727456193741,14270.017294463274,6.661469822064867,0.15312453102543214,68.56849134027905,75849.0,0.027122801643582148,638,93
639,836.3005945984669,879.8712300308046,14078.906587832642,6.576994706846026,0.13303332402933102,69.5927039587687,75635.0,0.03311475576867883,639,93
640,830.9054358435318,882.2258803213455,13929.563505742226,6.5880579608692695,0.1483894973650128,67.97970026828175,75702.0,0.012820476015864566,640,93
641,825.9629267763122,884.1298919828475,13936.580824929863,6.567149258538461,0.12355279125797394,69.21767060093809,75715.0,0.027696004788948184,641,93
642,820.5397050791917,886.4598853085746,13698.006766251847,6.638362681670202,0.12626094953129038,67.33045379370105,75811.0,0.03331374056452173,642,93
643,814.2821982725675,889.0047644525976,14031.241938367588,6.672910398818085,0.12096103666110615,66.49369412052208,76429.0,0.027904437496052825,643,93
644,810.0964397089397,892.1105249480249,13459.184268882618,6.529029212158761,0.09357887011054758,67.1560129840297,75500.0,0.026376846548423587,644,93
645,805.3492981215916,895.020955362553,13538.858969904588,6.521961175926058,0.11132718615450843,67.33880067337921,75855.0,0.023875928384782544,645,93
646,801.0522607349363,897.998641347278,13545.639002968755,6.552251839692053,0.1095912245386527,68.05133184214453,75919.0,0.011358319514647101,646,93
647,797.1438538350848,900.1073562115729,13178.66230521872,6.443536647117028,0.1276298298887469,68.95911902613031,74759.0,0.005400512632129729,647,93
648,792.8641734681447,901.7337069070533,13418.879866022507,6.475077238822002,0.14821551022409912,69.74526425674588,75145.0,0.009972050195036017,648,93
649,788.5535170387358,903.2038914967571,13667.16500884494,6.540917571742599,0.12009666184526017,67.58407464867602,75613.0,0.04748372005414812,649,93
650,784.5106092401985,905.7939442390327,13634.473562409465,6.563889148323117,0.1041789831710787,68.57884507257684,75776.0,0.01887238667118105,650,93
651,780.6150902481025,907.9227629313094,13647.188817545355,6.597084629402633,0.1066888081231866,66.58651346018365,76088.0,0.011602214233607714,651,93
652,777.1713654183001,910.2946033864375,13195.046496660801,6.409240477613153,0.10191842846304104,69.88785157544089,74748.0,0.01767460314467804,652,93
653,774.453640609448,912.4966694740066,13601.809687504476,6.548477006628881,0.12645186633286026,69.25352914930308,75313.0,,653,93
654,770.5033438929954,914.5171994496176,13449.649299019562,6.51587487510216,0.11107617551767486,69.2903758965201,74964.0,,654,93
655,766.6109902649503,917.2618835359983,13465.131345581349,6.52961838635615,0.11011489219852508,69.14306293063204,75316.0,0.006806630560200056,655,93
656,762.9811106765741,919.4554165037152,13613.471182778309,6.512585211126696,0.1165996828565248,70.27681643045509,74917.0,,656,93
657,759.0581560844469,921.2789989720883,13528.565885930631,6.353699295830422,0.10353529011327144,72.73997629819586,73821.0,,657,93
658,755.349472674976,921.86589964845,13858.436429880758,6.415622411739144,0.12015930486633702,71.75029407608446,74004.0,,658,93
659,751.9905274829716,923.6184064628544,13804.607785343012,6.481297955675418,0.10986416891919198,70.84892954936062,74019.0,0.002774537440215144,659,93
660,748.3774130344008,924.8002441139627,14038.01182280088,6.402963712490662,0.11493243586071847,75.3010623585182,73436.0,0.004830647420974005,660,93
661,744.5177351011482,925.54917304538,14058.863648454657,6.4229461532956655,0.13174579206297793,73.98390520304869,73022.0,,661,93
662,740.9822812429463,925.943533217967,13927.720173467042,6.367090307887065,0.1389933303735469,73.87738110220648,73094.0,0.004716377687821948,662,93
663,737.8753424129018,925.9532389366874,14075.20298827666,6.41055533655105,0.15017950187224446,73.85422301808039,73134.0,,663,93
664,734.9217019326254,926.1491482698037,13887.05728816366,6.416587839018245,0.14693758400853715,72.66545139708279,73453.0,,664,93
665,731.711343423311,925.7314323607427,14119.488628927927,6.462124246233251,0.14353268470017116,73.80291294571471,73338.0,0.006208414200878593,665,93
666,728.5797976629284,925.7744098502078,13712.58720641986,6.3673859960883865,0.12531547781406302,73.66576924474631,72565.0,,666,93
667,725.4911022474496,926.088172125489,13946.388806422492,6.405807032215994,0.1507382752435268,73.8130572710863,73473.0,,667,93
668,721.4182311694187,924.5026389203047,14291.603650966586,6.532506483429093,0.14958750781376035,70.57981144072318,73970.0,0.009147334388542955,668,93
669,718.2771054376658,923.7054045092838,13975.8088715197,6.435296969233675,0.1457074298051264,74.14222213007798,72933.0,,669,93
670,715.0733292953765,921.9317181506158,14187.744998608187,6.514005163859095,0.1681245807968028,72.75766665952916,73793.0,,670,93
671,712.1664049061402,920.0216887293396,14271.033188716206,6.545874888012307,0.1579538771238923,70.97627006578624,74018.0,0.009924943934077973,671,93
672,709.0059593929734,917.9774443905482,13988.055775032892,6.448193893667692,0.13957264690484347,74.15191371284153,73469.0,,672,93
673,706.0246723963269,915.8558543838436,14056.859281648849,6.468794259615128,0.16147942386011138,72.11943750919478,73583.0,,673,93
674,703.0877586636749,912.8594282390094,14169.858802893452,6.522649744863996,0.14547216737960111,70.65499278431041,74345.0,,674,93
675,701.2478765949343,909.865663683108,14199.456109409673,6.520240814421065,0.12085931361493751,71.38938131563805,74718.0,0.014989710101525899,675,93
676,698.528563505269,906.2258933523492,13710.331704808797,6.411063500171614,0.12625806989534655,73.32599556886093,73713.0,0.011536409338443078,676,93
677,696.0381701444622,903.2279935794543,14028.380428290377,6.482907518053952,0.11896322619776908,70.70483875574925,74463.0,0.003388488798345439,677,93
678,693.0547903890621,898.5282664790054,14123.193101787076,6.568666616592416,0.1398938760569757,70.51894280239517,74660.0,0.0027925472759905124,678,93
679,690.1430456778356,893.8190483173253,14504.705517141432,6.6078447092632,0.11926099516502617,70.72094118996299,75352.0,0.029548193925945744,679,93
680,686.063767884899,888.1247060699055,14577.032093401314,6.654949316450691,0.15410959780085204,70.29695441798091,75768.0,,680,93
681,682.5503664564513,883.8024884949718,14241.591681991305,6.616827796636072,0.12900910195189225,69.90929613794948,75017.0,,681,93
682,679.7372653441619,879.238130741579,14689.482823525528,6.708007443818871,0.14365423144499637,66.4947964318823,75742.0,0.058249158631922475,682,93
683,677.216294721927,873.9505490612823,14751.702675121076,6.689076751394262,0.11288006882806721,68.45458910523772,75767.0,0.011079241394052834,683,93
684,674.4638165879973,868.0624140256238,14744.240071795613,6.680404815300589,0.12074549634019213,69.99288611290703,75680.0,0.02411053736257326,684,93
685,670.5063873275421,861.1908130059436,14902.492301523265,6.77649450826232,0.15802218179274416,67.73313608254934,75992.0,0.030142476488882863,685,93
686,666.2846758402403,856.1034843485958,14964.817181860706,6.691905899718917,0.14299138893455954,70.24605044997783,75583.0,0.07320154920463948,686,93
687,662.838985236284,851.0312036619174,14671.051134891764,6.626483944897748,0.14094547901120713,70.46568948162185,74926.0,0.02137312549090713,687,93
688,658.6850102531348,847.53591958853,14503.265504341935,6.611291912911081,0.15409400894775674,71.67042152614597,74584.0,0.01909802594958013,688,93
689,654.1841686444227,844.2324165852297,14544.77824524303,6.573668914172609,0.15034425992541817,71.88121595443295,74535.0,0.024416919490455328,689,93
690,650.9480193787404,840.9400683955542,14290.895258305605,6.596792315324521,0.15323737177825844,70.86394342961457,74441.0,0.01896821296081516,690,93
691,646.9565627427049,836.3911294796405,14635.966851343468,6.668043470760259,0.16158860735384695,70.23250486193332,75037.0,0.021778278670048352,691,93
692,642.4031888951416,832.4903395235416,14575.810754164699,6.681785520185475,0.1429147537254302,69.99451421996179,74943.0,0.02727283400756593,692,93
693,637.5607144127797,828.4310669939873,14141.558497262577,6.529439395827222,0.15402437485604317,71.44488229306884,74150.0,0.01789018973045285,693,93
694,632.5802447853819,825.2944894558409,14229.741529389137,6.519526317897409,0.16115615531938515,71.95410300443855,74091.0,0.020068916619071567,694,93
695,628.2123837761594,822.3006131437289,14084.889003220984,6.471297234805873,0.15411768579571514,72.98080027000711,73759.0,0.028216203979478594,695,93
696,624.5735571159445,819.9633213449791,14162.16072625633,6.5054835666123,0.16942380796268927,72.35904464234409,73430.0,0.027624149102557383,696,93
697,620.1262061960387,817.757942554032,14321.470885914041,6.535751151374352,0.1806899645850342,72.73474294522113,73654.0,0.029105375577338485,697,93
698,615.8822648896054,815.8532197242292,14202.338802212418,6.501802755716243,0.18511321038039305,73.58936596903294,73432.0,0.025057866953361763,698,93
699,611.4306754505528,813.197940330153,14197.84944862936,6.515179330944948,0.17448881964497656,70.95699406402679,73919.0,0.03529371085433319,699,93
700,608.1475907233838,810.6511655851958,14174.696558862079,6.468902651459452,0.17299817969558753,72.81522204894904,73704.0,0.023347091908624867,700,93
701,604.1896797153025,807.8931494661922,13985.645764389677,6.435138100497863,0.16162061873689323,72.58268116157157,73675.0,0.038567603214174975,701,93
702,600.4902419105016,805.0508040215157,14185.548511947905,6.566631211676387,0.1639388342360101,71.50900289049748,74428.0,0.02374675390879902,702,93
703,595.339910866945,802.1819099139502,14299.277387431683,6.592399863808837,0.157816966797557,72.14367603043145,74727.0,0.02448084609438567,703,93
704,591.1447969063472,800.1953013694647,13849.159942599124,6.42617754638818,0.14396704070970226,71.27326228709461,73650.0,0.019769013604252313,704,93
705,587.9672748168366,797.9080591868984,14045.185813855529,6.473592384627276,0.15231199862094688,73.44415509615591,74010.0,0.0356657915377102,705,93
706,584.6136225946975,796.0355422208119,14111.342020549855,6.508022340736516,0.14225351685928578,73.27818029884816,73599.0,0.039394980902367274,706,93
707,580.5668978349121,793.4457600360848,14518.616599232832,6.583309067403021,0.1279226043734522,72.85503367905514,73992.0,0.033369341475515776,707,93
708,576.057730328193,792.2445913122069,14614.300826750068,6.513565680557497,0.15765173676758665,73.05912123184663,73794.0,0.03880968910803649,708,93
709,571.7019133937563,790.8288295848719,14662.96158744095,6.507866578451931,0.13118752792138527,74.24180506117298,73691.0,0.050649449466100276,709,93
710,568.6341260982799,789.4773761483643,14409.326315550235,6.481639314785841,0.14538373402895233,75.05501815718334,72967.0,0.035731175039796566,710,93
711,564.9342101525439,787.8768854927137,14498.979427760014,6.420927067478224,0.1164041974366565,75.37179317899277,73048.0,0.03091801498326636,711,93
712,560.6922242616386,787.9885143778853,14742.583087304076,6.515329956739417,0.1309689901806937,73.3890197627073,73546.0,0.032089031037414534,712,93
713,556.704213800905,787.1310237556561,14575.532123945819,6.457790202433223,0.13194925729251122,74.60891726341043,73461.0,0.031086673221220926,713,93
714,553.009946508602,786.7967037733122,14315.78037482873,6.422097981930716,0.12486220124457065,75.33531959574465,72997.0,0.033590296619932104,714,93
715,549.3071174067959,786.5702036441586,14367.344977406936,6.46570235277125,0.13163665589387982,74.49826919717974,73235.0,0.030597538750077355,715,93
716,545.4596273291926,786.5459799861974,14295.176449998995,6.473239937520072,0.1362206636752367,74.8137253824424,73308.0,0.03607382458081489,716,93
