frame,y,x,mass,size,ecc,signal,raw_mass,ep,frame,particle
0,1011.7606522372124,902.1563622245948,2492.6845459572046,3.5066941432669863,0.06986978900662313,47.66173498530227,9147.0,,0,2
1,1007.5666824308347,903.3224166469614,2203.9489993455427,3.897480253850663,0.18593607951658325,38.56519885352806,8598.0,0.028726450784568168,1,2
2,999.2249951257555,902.6125950477676,2583.325212755898,3.3909781326974158,0.06174150469864384,55.40373823418772,9145.0,,2,2
3,994.7529639762882,901.0053579571363,2512.7005951602655,3.5878652452097275,0.0794137896227059,48.6957479682222,9316.0,0.009838762674500573,3,2
4,989.9225893200154,903.47426046869,2593.440792986821,3.526694207366221,0.08429625314157628,49.81638096401884,9214.0,,4,2
5,983.6748633879781,904.1326112412178,2218.339309669421,3.852939204714043,0.15960669082410714,37.448546113662154,8756.0,0.03790683001704254,5,2
6,980.5165684830633,906.0351006381934,2471.444204222171,3.5227188868010235,0.12993834009272204,49.137697727539475,8868.0,,6,2
7,974.7105925639039,906.0706816421379,2491.687023832401,3.5108413480731433,0.09217444254665622,48.73361529958801,9037.0,0.019743835360049436,7,2
8,968.8959361052384,906.8533004463237,2485.0473674446284,3.731488646241708,0.183334467115644,44.365421641012865,9185.0,0.023986679694905103,8,2
9,964.2065633371603,908.6436088786835,2639.1051323514084,3.5462069342270115,0.07947446118043605,51.00451939676469,9399.0,,9,2
10,957.2304883287985,907.8185593584419,2610.4777967837504,3.5613021060871213,0.11929257492056673,47.66374324644539,9294.0,,10,2
11,952.8474317528736,906.1374820402299,2568.6866294877664,3.4383946066826545,0.07871330944860239,53.05297456736586,9268.0,,11,2
12,948.0564475915029,902.5641767228483,2482.5523192982864,3.682754507422773,0.1639648133361293,46.29872182195867,9148.0,,12,2
13,945.2780161138433,904.828084126818,2497.1786614319185,3.6300629348765554,0.13990345500781207,49.12311272880618,9220.0,0.013162495565270708,13,2
14,939.7634272257948,903.6617154243276,2696.7446987461694,3.572822065665521,0.1207613161769823,50.31513521797943,9465.0,0.030492481111989298,14,2
15,934.8176006818666,898.1908161090987,2531.582237247216,3.717274995229106,0.13057909006986734,43.96419184650503,9494.0,,15,2
16,927.6302696385341,898.129977460556,2518.809087124833,3.8597803909678214,0.2279189863113013,43.52562659945241,9451.0,0.013939335926641268,16,2
17,921.1233448983927,897.0055937123841,2722.351161883645,3.670402487720528,0.18026522388359004,49.15383036750899,9739.0,,17,2
18,912.2198926868044,893.9715818759936,2328.659304605317,3.801292036225852,0.18713320336354491,40.955156688706396,9247.0,,18,2
19,905.6368446368447,891.724506974507,2251.1111239893667,4.009443518200166,0.30285499742688715,37.085404519786344,8988.0,,19,2
20,898.9896582733813,886.9294964028777,2724.7542586499717,3.561269982027772,0.04265323136374805,50.96662642079084,9854.0,,20,2
21,894.0610050736893,882.0171539019087,2318.8410047892544,3.9496254191911357,0.21293916873686342,36.69584097939023,9220.0,,21,2
22,887.5784161490683,881.3260869565217,2409.9910198441635,3.7928416441180106,0.1465872517591081,41.96634761707339,9402.0,0.030362934812702386,22,2
23,879.2704219899342,880.4763840495548,2640.596021817892,3.5508310413212905,0.08120493235352395,50.85933104353083,9590.0,0.0027891310970578815,23,2
24,879.0840201850294,880.2470142977292,2835.9741946784297,3.455739609540727,0.05425726274064379,55.57459944155375,10001.0,,24,2
25,875.6399253731344,879.2112136684996,2603.734823751345,3.8083764707921905,0.1797362588823748,42.95242050178967,9634.0,,25,2
26,868.9037442758373,878.1700637514591,2928.8252760078453,3.428040125245956,0.0481045347682575,59.69680682892887,10135.0,,26,2
27,864.0599049964814,881.5179451090781,2936.75202822736,3.5608093356089947,0.07960941333930702,58.642039972520294,10253.0,0.01310050254223416,27,2
28,856.8876741693462,882.0715255448374,2408.7863663181156,3.754687435999265,0.18539401015684384,43.71788046050742,9341.0,,28,2
29,853.8067324434127,883.3923389437028,2560.2904917723727,3.655164074946626,0.10244128240458508,47.30271657269522,9424.0,,29,2
30,848.1523363554847,881.6378399920295,2557.9673449722286,3.706772369974936,0.01704686461661382,45.87367959499862,9486.0,0.021951639384742715,30,2
31,845.1521936459909,884.3883005547151,2550.4311779829955,3.57777923947729,0.04303110658592298,47.33024072101575,9597.0,0.007529802025192739,31,2
32,841.8059248891999,882.7978773034756,2376.408011626031,3.8178279937886526,0.14700684366148908,37.97152992684468,9186.0,,32,2
33,835.841255504121,884.1596477362538,2425.126240789282,3.833764884492471,0.11168992354112958,42.98801171998614,9308.0,,33,2
34,829.0611527870097,883.0097806476118,2358.9045145422297,3.826636747691704,0.18130100023854287,38.975347595702964,9141.0,,34,2
35,824.2818115144847,883.9357352401906,2418.2490793039346,3.6744716410459275,0.09256140662600797,44.33900035394087,9306.0,0.009566900791388088,35,2
36,819.4379168570123,882.6761991777067,2565.078097121947,3.5320240872028448,0.04396566021478585,49.91883368542483,9398.0,,36,2
37,814.6773990395969,880.7826497677714,2589.426747493719,3.6730185274146985,0.12759440986536455,47.49558625254165,9497.0,0.00877514965215804,37,2
38,808.9735028198013,883.1832423238743,2550.304659488781,3.650752268020927,0.06859786793208272,45.43108291453473,9492.0,,38,2
39,806.0167018284106,880.2813818565401,2573.743332158456,3.784348085999176,0.15257002371717712,42.533732985741004,9523.0,,39,2
40,799.3654411019953,878.8306492454168,2332.30257372884,3.9753876641045864,0.23717540311241017,36.379479018964986,9171.0,,40,2
41,794.1840334755498,879.2231703314736,2716.399237192361,3.7412078310947523,0.14649628469296336,44.35210438146372,9853.0,0.009193122284702983,41,2
42,787.7300492610838,877.9799014778325,2559.347983155881,3.599425241474744,0.11785686092398732,47.15251949262559,9537.0,,42,2
43,782.9793548387097,876.3833776091082,2806.923085375819,3.545261690680671,0.06303816969823046,53.47534682575564,10074.0,,43,2
44,780.6425940138142,877.0562547966232,2746.835002981807,3.564319643401484,0.07237094023130622,52.912938276932735,9813.0,,44,2
45,773.9173114497851,877.3172332942555,2725.8031911113962,3.589496639835941,0.14349209898782134,54.32433088967613,9778.0,0.03972375255858033,45,2
46,767.0356223866195,872.7582019942104,2938.1634297840365,3.488413021719147,0.11551161798132044,60.24699860042853,10183.0,,46,2
47,763.3286052009456,870.3293388766609,2980.4649175004442,3.439030975537316,0.08950900458404744,61.95635069394418,10268.0,,47,2
48,755.1125,870.9407718120806,2648.856591042676,3.8944656136763336,0.18963090528004695,41.99948789488806,10076.0,,48,2
49,751.6889387144993,871.1751121076234,2933.6922884065684,3.469458890450521,0.06091917434926616,55.91117590012518,10423.0,,49,2
50,753.0854461788324,871.2923396192367,3042.4402225105555,3.276059124216926,0.05093266693551599,70.00110590455577,10592.0,,50,2
51,752.1831006831006,867.9907187407188,2910.4962860588057,3.545589629554698,0.08842683113044948,54.89055959748564,10351.0,,51,2
52,745.4783548170777,864.7725206765517,2321.649806833551,3.9388440199752712,0.2710356336398596,38.921928808400935,9255.0,,52,2
53,731.9190807799442,860.7426880222841,3040.2853031277027,3.8434457468414522,0.25495829694064426,53.988353224064355,10540.0,,53,2
54,725.9634184799747,856.9722485020499,3168.327480442216,3.400729882516091,0.09084440947169611,63.44648218482519,10782.0,,54,2
55,717.258286055539,856.8945954016124,2950.8162677855366,3.7173180210512964,0.20002081303703248,56.17036042738965,10549.0,,55,2
56,710.4204646213868,857.0406100372406,3192.1509146885815,3.2838197646722755,0.06462229509730007,72.1757832280181,10596.0,,56,2
57,706.9985820072475,861.7716243894754,2941.830557345152,3.7977566703404224,0.16499098621069802,49.130934154496,10639.0,,57,2
58,702.4763843648209,859.6407889974665,3260.6932343269273,3.320346580028842,0.051127594371950635,75.2331500862619,10810.0,,58,2
59,696.4867023466447,860.4602717167559,3070.479114350539,3.597412271544854,0.13313296889045112,59.41231715705036,10630.0,,59,2
60,686.8916538007447,860.139133593679,2705.821294661263,3.9135954345486623,0.2504518454227416,43.74136685584459,10218.0,,60,2
61,677.1115705896948,856.233562153668,2755.9462709513523,4.040128298941102,0.32882004488847827,41.711865650822716,10111.0,0.005775768143304571,61,2
62,671.6032632030915,852.105538857879,3355.0985190390893,3.2633515423510873,0.021857442553817483,73.46931063589247,11020.0,,62,2
63,668.8425555151074,851.1687295231161,3409.9719962541503,3.2130966071785405,0.06628124928694351,78.82534465312652,10925.0,0.014271159209160745,63,2
64,662.9032233826733,850.7361935532347,3034.194296264515,3.8263945646050894,0.22142174334930262,50.15574011407268,10770.0,,64,2
65,661.8112597255005,854.0892560538508,3128.4325554801803,3.3294758692282267,0.08078781079596231,69.73951408754664,10944.0,0.0023935556488448384,65,2
66,658.7092114825581,857.6828670058139,3364.0862378232378,3.270507748077133,0.03343684610274313,77.92895990597071,11161.0,0.009277490477319088,66,2
67,653.5543225099328,853.898136731059,2923.0042596792655,3.8197771343106086,0.25486129243332517,50.859232905777056,10545.0,0.010496153790129126,67,2
68,646.6526871084735,849.9673590504451,2731.7867380125954,3.9060175746876187,0.27558624837421547,45.93508857192297,10181.0,,68,2
69,637.1990601648563,844.8295200677913,3096.651690443684,3.5141651572139088,0.09616352487158014,60.59236802809458,10814.0,,69,2
70,632.2293299216376,843.2650727650728,3397.5614370296885,3.38112889791861,0.06803684718851456,69.27700035523513,11168.0,,70,2
71,629.2248764415157,841.3639209225701,3361.0898527223353,3.3511904988336334,0.07348280728024972,70.5994985538876,11114.0,,71,2
72,624.9697111840783,840.1516451115727,2975.3095160255375,3.8463678103774606,0.20999806884000985,50.8412468395438,10797.0,0.004603388812794582,72,2
73,620.2656223962673,839.2129645059157,3381.7417237879195,3.3348632827270324,0.08835848333915836,71.85003662438922,11169.0,,73,2
74,614.4746258729631,838.094047223146,2971.676200912454,3.7671324634271866,0.13429877544054483,50.40089333107255,10781.0,0.012785816416374392,74,2
75,608.3692927812385,838.5053865884939,3033.0790368737617,3.7335887382318065,0.1823883390471485,56.682678959531636,10781.0,0.0053188081385754935,75,2
76,599.7304634869307,838.1716518458636,3031.60230503626,3.8832410130318173,0.26151090225781864,52.078859322571155,10671.0,0.015169457905427047,76,2
77,591.9401011279658,834.4855438869441,2974.05913513281,3.9592111966430905,0.2677703278047109,48.96998705586242,10489.0,,77,2
78,585.8872836504077,831.6284508653983,3032.69993987447,3.6871370003089585,0.1734867916641869,55.09267520584433,10717.0,,78,2
79,579.6143335684062,828.6555007052186,3421.376649265972,3.3111050699431304,0.04789490273049709,76.90859005314024,11182.0,,79,2
80,574.9200913242009,825.2082997582595,3061.7750096559985,3.8976290512729515,0.2437844898365504,49.34367461170022,10844.0,,80,2
81,567.9115272575947,819.822555139409,3218.693508545839,3.4255775823624286,0.11630533166002727,68.31184724753965,11016.0,0.007922048373407764,81,2
82,559.0943257785749,817.8815424751346,3159.589468023073,3.537458815360737,0.16988609786524073,65.68525308542993,11070.0,,82,2
83,548.7677365505729,814.3975263677062,3067.928361092542,3.6242432640020716,0.1412977910530138,59.361236215084475,10814.0,,83,2
84,541.1519968366944,819.1183867141162,3264.8775025444834,3.4970359702615705,0.1064501087961164,65.8397598377891,11201.0,0.013139293955411187,84,2
85,536.1994695374054,818.4727357828224,3372.5318109493583,3.497237941496102,0.14690288476310245,67.08757405352105,11496.0,0.007605835167306111,85,2
86,532.416211745244,814.732423490488,3386.7378685433296,3.4677648257462916,0.169986598428859,71.43243643329603,11339.0,,86,2
87,526.6551942186088,812.3226738934056,3436.0914739705913,3.208150753260496,0.05186006077546215,78.84076191404971,11316.0,,87,2
88,526.5279652121758,810.9158794421952,3173.609636468852,3.7235396249310346,0.19188632889314697,60.674048380533605,11229.0,0.022865012172240715,88,2
89,518.7470844959577,805.6180153108678,3192.772573277593,3.654813129454465,0.24109608255555967,58.24976791770668,11171.0,,89,2
90,512.3910800730101,799.0149194508373,3309.219184500075,3.5446744682615865,0.1871597844304125,66.96697818010627,11174.0,,90,2
91,510.570799964798,797.2075156208748,3379.297887670172,3.342435283580371,0.08920016367705137,75.83569139803694,11304.0,,91,2
92,505.9739336492891,796.4167983149026,3291.2332221124366,3.6786152197604927,0.19154972216577137,60.37104997555724,11312.0,,92,2
93,498.9341475913905,798.4957294157841,3352.8115844794547,3.4088627228453547,0.10880136137310403,73.02416758133421,11290.0,,93,2
94,490.87338814366075,802.3260060579836,3348.0214061328197,3.3078326461947105,0.0131833055661854,73.88537071084977,11401.0,0.020676945719459452,94,2
95,484.4442317916002,800.6044657097289,2774.6815736730714,3.821467662868802,0.2470230661479591,49.56368999224625,10427.0,,95,2
96,474.45846937962887,797.6097794059091,3310.2505697366814,3.457105840380122,0.09496352926706096,67.22257667299942,11067.0,,96,2
97,469.64636642784035,792.7667349027636,3003.4821468647815,3.720451651520269,0.1991846911157857,54.41313613050833,10652.0,0.007560250299656688,97,2
98,461.075960293483,794.5038843331895,2719.2940166108547,3.9726894599378673,0.20443276418673714,43.4242031137685,10359.0,,98,2
99,454.69699527346387,795.4956110735989,3269.76541758559,3.3770984673338846,0.03821361205888956,70.37391808611795,11043.0,,99,2
100,453.8193694136136,792.9032511541106,3352.841414318436,3.278453378703199,0.05550054611683469,72.7804687716702,11118.0,,100,2
101,445.08742039533536,792.2970804730792,2559.334465390244,4.114913338774667,0.30055232211578825,36.619374949343495,10142.0,,101,2
102,440.27813237737166,797.5580134650695,3487.0958085621255,3.339468574916882,0.04912676064834431,77.74848572032369,11268.0,,102,2
103,434.11360976425345,797.5259153987628,3161.7121569844944,3.593358044566218,0.10956777856188614,61.320616988831524,11011.0,,103,2
104,428.6833492906258,800.5592305683698,3422.2303012215057,3.3201264464635334,0.03449089099431986,75.65902136915854,11316.0,,104,2
105,425.15688797392346,798.4920226453937,3160.0514058653926,3.853989339742103,0.23886399543746684,54.483644928713666,10912.0,0.0104462397421098,105,2
106,413.9778620568001,795.2396366202152,3061.344797224362,3.840050383335018,0.23496405350178237,54.27150328471483,10853.0,0.05025938619706415,106,2
107,407.1285889355742,799.3539040616247,3241.350998868804,3.5049235077984524,0.06316927202485759,64.97456046401926,11210.0,,107,2
108,403.2075773745998,802.3905016008538,3091.9532813411392,3.6819093928215705,0.16567155134277206,58.40722847357328,10909.0,,108,2
109,394.4020895522388,803.7659701492537,3299.3265421123506,3.369027791322961,0.0650508363165049,69.92602522088862,10968.0,,109,2
110,388.57584459459457,802.9619932432432,3288.9044536336874,3.370479956198395,0.08768949628645492,70.83366855376607,11097.0,0.003940286373490564,110,2
111,386.72897483118476,802.4344689993861,3212.5466260190974,3.555898444945713,0.11669894113095071,62.614091698039495,10946.0,,111,2
112,375.1821618216182,803.6815768157682,2987.5999379157297,3.776755570436931,0.16682692230850482,52.97067660601195,10856.0,,112,2
113,369.0299352750809,802.8815736245955,3152.6434215881395,3.6952995376747415,0.18216877194669714,56.43384765585565,11001.0,,113,2
114,363.13780036968575,802.112292051756,3336.348044795503,3.4183369825739143,0.08591547230028691,70.30382201602353,11175.0,0.009069492099026294,114,2
115,359.65763787213274,800.4803969415975,3089.663014993581,3.766628443640093,0.210258851497022,54.786606252529744,10849.0,0.01651307652424187,115,2
116,352.09685430463577,798.3956953642385,2941.462818006519,3.782283771717998,0.09838025133318765,49.61283519609505,10651.0,,116,2
117,346.87311369202814,801.677648731927,3168.209744318764,3.530765247281876,0.10173350338293266,62.57821253691167,10968.0,,117,2
118,341.27110665999,804.6258387581372,2606.741138911588,3.8235362092852703,0.1606586180333188,44.12010540571441,10169.0,,118,2
119,338.10985992859105,802.0542891147121,2980.707198984594,3.61627588129787,0.07574828854739034,52.6665283716952,10733.0,,119,2
120,331.1602974096578,799.8964662615925,3012.0704983148107,3.7354129466065364,0.15491874923148602,49.12555018038227,10609.0,0.004849080566686294,120,2
121,325.071018651363,797.5972535355605,2906.981900057169,3.698808547220246,0.06375488467178032,53.32545194816901,10625.0,,121,2
122,322.99234014209594,801.4419404973357,3121.124257920061,3.561063365245924,0.07897893708192809,58.20924459708817,10884.0,0.015158923087720783,122,2
123,315.04130062749573,797.5804905875642,2550.1715602552817,3.854069348354817,0.2124836558352391,44.51525940890566,9809.0,,123,2
124,312.76077176846945,794.7211836449065,2953.9344794255076,3.5188187470211765,0.08398877245153481,56.403227588750575,10446.0,,124,2
125,307.3659047445588,796.2630907931882,2881.663093339691,3.5531659990354485,0.09654461100435938,55.371178644447205,10259.0,,125,2
126,302.2307621671258,797.4271808999082,2786.577830773822,3.7318154135744357,0.12180075970893532,48.873862780330576,10145.0,,126,2
127,296.8489465436183,796.8702768587846,2991.7439930046794,3.572572886997497,0.06856032187952282,57.04265492495427,10440.0,,127,2
128,292.00494517308107,795.0938149501899,2895.1497662895567,3.7373835162999853,0.11714530965914001,50.835783898870595,10451.0,,128,2
129,285.0928800856531,789.5230192719486,2423.381914571106,3.9757024348040773,0.23541056325692764,38.59508134822827,9639.0,,129,2
130,281.5656690576305,784.7154340836013,2639.751206802149,3.689115354651545,0.02568915345349228,44.724946244359934,9889.0,,130,2
131,284.79387736780683,780.031690456953,2761.4679492666596,3.772874395097858,0.053178307693513296,47.102873719424124,10125.0,,131,2
132,278.79309576837414,773.9463251670379,2494.5695928048167,3.877380007663775,0.18042618902354912,40.002006833395725,9746.0,0.015733644021613098,132,2
133,276.86816946764617,769.0568582067023,2602.1232535974145,3.863096965445722,0.19196961410286242,45.04027368609795,9941.0,,133,2
134,270.03604836869727,766.2740132329454,2566.308849117345,3.859410454092689,0.14163641748727251,41.278752877657496,9896.0,,134,2
135,260.64551690347866,768.1635227829495,2464.4035903986783,3.896521017671571,0.12601894464138705,39.24209538851398,9774.0,,135,2
136,256.9113176409276,769.395118561626,2777.835777740567,3.603129400237315,0.09436460599403097,53.08120134655822,10013.0,,136,2
137,251.85829230214964,767.973339738201,2239.6399262008017,4.027585914751979,0.2703613353792352,34.6959950137989,9334.0,,137,2
138,245.38356867779203,765.9014976465554,2808.2875660558666,3.7448695470856888,0.11485515993588732,46.86487594188224,9992.0,,138,2
139,244.5776807125728,763.238780404248,2688.779701418679,3.763396762252634,0.03624641276262855,44.21426024943357,10040.0,,139,2
140,240.71704211557298,761.4087169441724,2876.6408694137945,3.671554632334569,0.05470011890677674,52.968509642487106,10354.0,,140,2
141,237.1015592077539,761.0901812052255,3121.2045554596093,3.49449027528031,0.06776046233578939,59.451515342087795,10635.0,,141,2
142,237.93107088989441,759.0868778280543,3094.20250270952,3.5608479339968695,0.11216556046050004,59.50389428287539,10664.0,,142,2
143,236.07209853150167,758.7039317858835,2997.355621700809,3.52717003700126,0.032626306941802616,56.511015510986354,10742.0,,143,2
144,233.319330312572,762.1095921972199,3068.5963455741266,3.5725338673863694,0.08289135901578591,55.14565278122615,10855.0,0.004125416386953051,144,2
145,229.54752626228398,762.8108268383598,2843.030420871082,3.9606673429389705,0.2741984071392392,46.243802169370355,10277.0,,145,2
146,219.8918125352908,762.8512704686618,2721.6739773148643,3.8699788509979083,0.22327030086773117,46.10401994322187,10303.0,,146,2
147,213.11214599424505,761.1787823716493,3081.9333439072434,3.5518700293985725,0.10732321779184487,59.510298553411104,10475.0,,147,2
148,210.61762840837034,760.3767438173747,3034.6412960674897,3.4820060144392335,0.054045489415089874,61.33747071157339,10434.0,,148,2
