frame,y,x,mass,size,ecc,signal,raw_mass,ep,frame,particle
83,9.732002983961209,657.0695635956732,659.9703934483401,2.990473497940979,0.2318882021392753,17.600851596999746,3290.0,0.046090366672140615,83,11
84,16.25636523266023,657.858867427568,529.7895415309285,3.0784660901095444,0.19343582282927946,13.954070452965635,3141.0,0.05741049643016071,84,11
85,26.54456713074092,655.4560729716754,712.9163207598276,2.8804248810894717,0.016566113947464267,22.58880325019137,3499.0,0.04579134410372135,85,11
86,34.280085576751645,656.4858263505081,646.091140947225,2.9068561713397116,0.13049164004180844,19.006068507094334,3333.0,0.0396365068139185,86,11
87,34.13651994497937,658.1186382393397,719.020209094054,2.939848595788958,0.10037575599080904,20.15135730438975,3513.0,0.0373466723099957,87,11
88,41.745490110845466,662.4731580091285,549.1889490313745,3.1036572855211104,0.2024139601577643,14.084828512432557,3177.0,0.05624861105902448,88,11
89,47.806343906510854,666.3611574846967,618.899319317335,3.0682280508930795,0.1595395155458378,15.153906538654836,3286.0,0.03510859433549973,89,11
90,54.229217233009706,666.9197512135922,776.2195733125864,2.878401322741025,0.052837268237720995,21.195316018850964,3474.0,0.04609810611814981,90,11
91,61.42790697674418,665.9557278208441,678.4843632148231,3.0691148524624348,0.1412724614286159,17.06437847189736,3418.0,0.04179547141704822,91,11
92,77.52686145146089,663.4404649701539,392.02310140298886,2.991977964405996,0.12091773150823613,10.96137481145649,2667.0,0.07613781895896322,92,11
93,87.94879960803527,662.4407153356198,492.8982395226348,3.0599113263035522,0.23598902873122302,13.765408943062313,3032.0,0.05099571680943713,93,11
94,94.22773127280533,666.3721828718609,556.4329888638825,3.096744442628279,0.12410099412036064,13.256935343183292,3081.0,0.05594876495978092,94,11
95,106.10892289047113,666.1343735797607,718.4713875848611,2.9271309747035974,0.0089922528946629,20.027077005849787,3367.0,0.043478637197607216,95,11
96,114.29939241567149,668.0492352817935,585.7614622567517,3.004989216744528,0.20703886442779515,16.56773463328336,3112.0,0.05579934078092598,96,11
97,121.875,669.0886690647482,612.6397550570913,3.060481459278904,0.17083797923331803,16.528050945784837,3207.0,0.06216211700145902,97,11
98,130.65109952391748,668.8086601677625,552.4139943505432,3.2102688895531517,0.15069409789808053,12.398319075199225,3013.0,0.05616996119738243,98,11
99,135.14948900051965,666.2400831456781,639.1876746999648,3.0582711933118896,0.13784694479866577,16.054427997833862,3228.0,0.052224889575688785,99,11
100,138.12708150744962,666.9838737949167,681.916172665036,2.900300688572949,0.07297914274578363,18.646612258675834,3310.0,0.046271362436676955,100,11
101,145.06440749315934,667.0021048200379,563.8833731970673,3.1712505642132633,0.21650498971692922,13.411665159180933,3035.0,0.0642518094041448,101,11
102,151.6965414652287,669.4468203793232,624.2826985160817,3.0052328231451617,0.13249554589615697,16.135235234982403,3072.0,0.05926619143219043,102,11
103,153.3787792355961,677.8794447613615,601.7161969604246,3.0092081539225184,0.09571477031297718,15.675055901041674,3115.0,0.0478635549922392,103,11
104,158.21003940380334,681.021586431386,639.6487416088464,3.000199867706835,0.06133763335218039,16.32819299292755,3188.0,0.04832324848399516,104,11
105,163.63013698630138,681.8280060882801,734.8869152321689,2.9718619534425947,0.06811798697738145,19.127193684124943,3309.0,0.056508604714885634,105,11
106,167.2782664664235,686.4724308088392,536.3079790183406,3.2025252854970585,0.12949252662923272,11.506285754523505,2995.0,0.048594251979713635,106,11
107,175.82180956143816,686.9616752271829,585.2426266286523,3.205524172928965,0.058830382458691884,12.717639061468144,3096.0,0.030278627751697297,107,11
108,180.86342509831962,685.4095459420809,611.9857096211302,2.932776813113824,0.079064463702536,19.145065996370718,3100.0,0.04683364027672169,108,11
109,181.3048306496391,686.0442346844346,653.5125674528463,2.991071914461917,0.05764746312651596,17.780186454852565,3183.0,0.04896802282416892,109,11
110,187.63528737827,683.9012793584113,623.6024083914407,3.1982129342627017,0.016978413054112598,14.050999463469543,3134.0,0.048592650333138636,110,11
111,188.73007089745806,680.427632716583,612.5442782320348,3.0748909209975563,0.07000138312412997,14.617172816188969,3154.0,0.04282219848771653,111,11
112,191.13746438746438,680.6570512820513,597.7674734368111,3.0353449702330524,0.06696064000384333,15.220931036585467,3122.0,0.06167691870588584,112,11
113,189.6155844155844,679.599000999001,601.8517737218532,3.0854950527070564,0.06833245978486384,14.790762870686903,3065.0,0.05181217466298987,113,11
114,188.2598439821694,678.8426820208024,598.5758013055996,3.1231532433228217,0.013539981229364352,14.341805046140852,3084.0,0.05068274794151181,114,11
115,186.9980945121951,675.5116234756098,622.1641739140863,2.9502028144419943,0.10201592468068839,18.494209437994943,3058.0,0.06251356175141473,115,11
116,187.63681027966743,673.0519652305367,586.005722398225,3.0346014144397992,0.037561526237140215,15.613531152333659,3065.0,0.0583887402707874,116,11
117,185.4492450638792,672.9226480836237,504.5545178090798,3.06567675786927,0.0021688034508941796,13.126621601537035,2927.0,0.052313592611620045,117,11
118,183.5063209076175,674.5750405186386,360.3303249175374,3.2112040487118745,0.1370261367939998,9.92806405769552,2628.0,0.06539980954515554,118,11
119,184.34159438248656,679.3688558446922,569.2446501655778,2.9206071805671683,0.1168382387050644,16.106261270690656,3075.0,0.05153484014520282,119,11
120,183.31487684729063,680.7655172413793,610.6021064684356,2.9713243634625965,0.08099925624904633,16.242617610490406,3172.0,0.0405437723428757,120,11
121,188.393838028169,682.5600352112676,604.6195494549554,3.1446354946744144,0.08320920689176253,14.051017698601076,3133.0,0.05319492353015095,121,11
122,192.06930136729724,683.2983704813636,602.8530996794238,2.965588999171327,0.09171527910771769,15.921012746731366,3139.0,0.05943536857856174,122,11
123,194.85134316299738,681.232882246011,522.5217850139768,3.028812024931095,0.0461342491929357,13.508945360894574,3023.0,0.04635184985095616,123,11
124,195.56768038163386,676.1125024845956,578.1073827886688,2.99097562707374,0.05712334947424923,15.742538549403225,3071.0,0.05338365937960226,124,11
125,198.46906610209362,674.144907080687,518.8556299672083,3.1677034046818418,0.12377740434652637,11.473166129597171,2985.0,0.07828690757422331,125,11
126,205.97748754081456,671.0054992266713,638.9759768579517,2.941107223996051,0.0651356689086004,18.33802855048598,3135.0,0.05427639823046573,126,11
127,210.74148454420163,670.4892695412483,568.9102529642433,3.071536662324823,0.036011922496337785,15.569703713729046,3076.0,0.047982158205517995,127,11
128,208.85908161368283,669.9354898680052,627.7552078502263,3.045939394190931,0.05003705331417888,15.288330958984876,3152.0,0.03488680050536625,128,11
129,207.5710545998504,672.2227000747943,632.526864553877,3.0393517298793697,0.02491869762486326,16.321747813843498,3121.0,0.058332183506442425,129,11
130,211.75891699092088,672.0175097276265,676.8356822225331,3.0300858458900195,0.0766718375535666,16.898945373260393,3218.0,0.05849322476244165,130,11
131,215.65964633419432,670.3272402145838,588.0211937771161,3.072732477745722,0.055989334098375906,14.019976803746063,3013.0,0.06042262862150023,131,11
132,218.8867415730337,670.987191011236,581.4684459955088,3.0495901363953815,0.11222702121465794,14.242710250227068,3159.0,0.0709500934261188,132,11
133,225.13780584056826,671.5767955801105,657.5489965121789,2.999157998123995,0.06809140875986616,17.85294828730778,3251.0,0.038287168684450874,133,11
134,228.92281562558972,670.7091904132856,609.5888830852758,2.9675225099636515,0.029699348095454922,17.830963743766326,3185.0,0.038144210330717104,134,11
135,231.85997055455587,668.3217732700801,670.6039490337178,2.9909345553104587,0.08041948761671923,18.100711858426866,3297.0,0.04576872568998362,135,11
136,241.82907943791224,666.193862919415,414.33403308994684,3.2277119546651774,0.276473759652491,10.099911904974329,2796.0,0.06387951948592985,136,11
137,248.64634415727855,662.9211398277005,498.63524059333724,3.0715637852064153,0.057720875876635575,13.217633945482763,2984.0,0.06154933998197204,137,11
138,256.14205416453757,660.8497700562085,645.2738475947299,2.962606907201009,0.06283904554588747,17.36557109861477,3319.0,0.06045135757644763,138,11
139,257.4861064046086,659.1535072856659,652.633806683775,2.9931866604467747,0.04382649778062836,17.80312485192948,3331.0,0.05542244943129697,139,11
140,257.6206967635539,660.6720263863122,516.9028980118346,3.209030496341248,0.16125623057355387,13.95882903309634,3047.0,0.0576059926210834,140,11
141,262.86820769363464,660.6380886665517,710.9154767343534,3.0078959972330788,0.09483217809346237,18.640530009249908,3325.0,0.054401970189222756,141,11
142,272.5650607834309,666.5072039621792,526.8381627462309,3.1359342700478168,0.17793301297354908,12.92781624028347,3097.0,0.054200622116152744,142,11
143,286.6190476190476,666.8252194732642,474.45843879453344,2.9892509389217627,0.24438203087675472,13.757906312477825,2865.0,0.042774863041151384,143,11
144,294.51048767697955,664.930256948086,449.10996295798174,3.1147853508478427,0.20609336789081883,11.422041533016316,2865.0,0.042366732745665575,144,11
145,299.27777777777777,667.9183235867447,602.7674080249925,3.0289699353733623,0.24564618008004804,16.0972972513497,3019.0,0.05921816213766091,145,11
146,307.94886025768085,671.9312190287413,547.4317887307716,2.988746650542637,0.11352309460168489,14.974348234855595,3069.0,0.054237068628448605,146,11
147,316.1293284867036,672.4849818251387,589.8683371979437,2.954213445325732,0.05302623009968564,16.927539808626662,3152.0,0.05059416287681186,147,11
148,323.0048646362098,672.3783840947547,517.0358273812167,3.02632275899719,0.07349693688666349,14.216298130194199,2985.0,0.05557251297027201,148,11
149,331.9015355086372,666.9936660268714,570.0038696842149,3.0685701622565156,0.2256305296601776,15.97323703913539,3116.0,0.05090151281860082,149,11
150,334.08449581506574,667.8252291749701,571.0965206340865,2.9316989117858405,0.16625888632485591,16.502390492615095,2989.0,0.04098077927970379,150,11
151,346.65671077504726,671.1793950850662,588.8205714006453,2.928221328934808,0.10833858649846395,17.364084903308257,3096.0,0.05569685258093793,151,11
152,358.0134342478713,672.1137180700094,590.1791627382385,2.954847851889259,0.11130548348526165,17.978967871496003,3157.0,0.059627214822705187,152,11
153,365.1436984687868,669.4673733804476,526.6111918587515,3.012029278893885,0.20655059849586468,14.39031761027448,3028.0,0.051664048065176375,153,11
154,367.23807468163176,667.373192315994,545.6072616752932,3.1583163596287154,0.07454565866011739,11.894308963782564,3053.0,0.04722572787191503,154,11
155,380.7182741116751,660.4450853714814,497.0457097554849,3.1387686985885885,0.23585875162334488,13.762225466234007,2941.0,0.06664749733964107,155,11
156,385.1842338352524,660.1139061116032,639.5082100655129,3.0154312310679985,0.055125375123708575,16.766557146093163,3168.0,0.058417784949670176,156,11
157,393.16216690042074,660.5997545582047,615.3524888435784,3.1571730924173083,0.18886972687576495,13.377228018338661,3153.0,0.0617901404508182,157,11
158,401.0496031746032,662.5128968253969,652.7535447513106,2.876595485517835,0.18614536743177412,19.10340235135284,3149.0,0.04926861031699796,158,11
159,407.93143216607257,665.0538897043406,556.0329165543253,3.0484313226710107,0.239327875317606,15.390300898547064,3028.0,0.044891640248193976,159,11
160,417.26462668298655,665.2144430844553,525.3551831272819,3.1654112910285246,0.18477155198521866,12.603380158255478,3052.0,0.0679515559688424,160,11
161,431.0468782846332,669.0046247635064,547.0513683078549,3.2181885338747245,0.27360245882145195,12.419917548296894,3060.0,0.042701332721400205,161,11
162,437.11073663938373,670.0150858610175,684.0980742236394,2.9898990063289532,0.15635183900340235,17.127154482248073,3236.0,0.04434194112190695,162,11
163,441.8671627612413,671.4452184927169,711.3361798676628,2.8946293436924564,0.08773304240324889,21.17340117402163,3240.0,0.050115947900257155,163,11
164,447.7804725067949,673.1825214300649,558.4361719993107,2.9914855827924685,0.18518095345935054,14.594296780245417,3073.0,0.05800835074597425,164,11
165,459.78449502133714,668.9599928876245,615.356903416134,3.138374650687782,0.055212140778721074,13.786445560176542,3124.0,0.04114425799362933,165,11
166,465.81781633516715,665.519255184088,591.5089301710708,2.8925239634946167,0.07031642970365148,17.647642647930805,3065.0,0.04469995853122231,166,11
167,475.58780809859155,672.9889964788732,554.3508383353221,2.8917911380173176,0.1613847701313294,16.7134825818528,3090.0,0.03568151939315431,167,11
168,480.4799249530957,675.4440900562852,617.9860490331197,3.0463893061915197,0.12074627476299814,16.696058360369463,3180.0,0.0559095521851816,168,11
169,483.0593869731801,676.8396551724138,591.1843184212407,3.044717805217745,0.20398755596758011,17.10130882789413,3175.0,0.06064522297327342,169,11
170,491.11927156293774,675.0948569141485,608.0415488753947,3.0101555810245397,0.125422614071714,16.183615369307084,3170.0,0.0418405513356129,170,11
171,497.65260912372827,675.4192648506728,729.1381554084792,2.986898423502265,0.12553728539585407,20.100953414608547,3399.0,0.041946325276630066,171,11
172,498.4303875968992,673.4877519379845,745.7087082087384,2.879491772555889,0.0170708678236025,23.700819408184707,3568.0,0.042960022834659876,172,11
173,504.0089829476249,672.0368453105968,724.7498134311941,2.9450147806870657,0.07741167745041665,19.42082325881397,3429.0,0.044286059282532465,173,11
174,515.5807410795975,676.6996797804209,461.2762949411244,2.996032753465041,0.0811463759957366,11.816776082663754,2837.0,0.06981614338347492,174,11
175,521.332237312366,677.362401715511,733.469017343179,2.9029328789173965,0.10214292197074275,20.551812351574423,3465.0,0.03042151327643307,175,11
176,527.4518130696141,675.9848749272833,561.403280006164,2.9931082367352,0.10578821736906721,16.547081357560003,3211.0,0.027726108897698692,176,11
177,532.8685762426285,680.8080595338388,766.7853204492211,2.842861063851489,0.10777801755973646,22.932501159180582,3483.0,0.05759961151933103,177,11
178,534.7777059773829,680.2630048465267,737.4805051892256,2.856333834224625,0.08235883544075571,22.041016714056017,3484.0,0.03483169685501758,178,11
179,541.1736191261335,682.0529266281945,771.0425339250276,2.835006699169573,0.03162214743837458,21.739204171670192,3496.0,0.053637297047312925,179,11
180,545.5023384353741,681.9717261904761,573.3178409761234,3.0749564456845797,0.23636703922700883,14.38169754149289,3128.0,0.05680622481264246,180,11
181,552.3305647840532,686.6603912882982,617.3603999252983,3.0005844145913017,0.12273148173470429,16.066411293736998,3136.0,0.05693893535421419,181,11
182,557.4843785632839,686.1409350057013,512.4737251482038,2.903542443795,0.14402411067004536,15.660542570093343,2970.0,0.05409793115226843,182,11
183,565.6798755186722,686.4688796680498,559.0929013955755,3.2057067889308763,0.22419960900381958,13.687336590182138,3111.0,0.062354435373241875,183,11
184,572.9451279047062,686.0119117359891,602.5828581468392,3.028730486151356,0.22864969639682334,16.591326498477706,3173.0,0.05549667477157316,184,11
185,580.04173678896,692.2539548973409,661.2621849193939,2.854457915244572,0.11660386173041402,19.363786633452463,3191.0,0.037994557337453445,185,11
186,586.9985375365616,693.3490412739682,761.2172922395225,2.8096067612294395,0.0846370705774493,23.007217477502632,3469.0,0.020482479733767288,186,11
187,592.1406321575813,698.6087952359139,512.4036763769328,3.190256582015464,0.26743611207085016,13.261936653823502,2908.0,0.05925119445975803,187,11
188,598.338474025974,698.3865665584416,586.2337942143514,3.1034974510334994,0.18300062638041062,14.39413334008452,3132.0,0.041820797135674964,188,11
189,605.9589011464417,701.1775903093229,514.77378325194,3.182698468844703,0.297469452128918,12.916668582570852,3049.0,0.060420514666812294,189,11
190,616.0650732459522,700.1392444101773,756.6528272269499,2.95071309808345,0.04859953661970646,20.18518721823629,3391.0,0.053152348616389025,190,11
191,623.7061592781483,703.3740682620636,558.5399273967628,3.111092040393143,0.13215065372025697,14.68112010026799,3011.0,0.05237595355554418,191,11
192,630.8581750619323,707.5928984310488,593.4971586173581,3.049786444581938,0.05931223651782407,13.722477655892673,3052.0,0.05460711628281625,192,11
193,639.8601735776277,707.6950337512054,494.7970407777325,2.9799636274339516,0.222482756312527,15.984282416638417,2909.0,0.06427522894284592,193,11
194,645.8269015659955,710.6174496644295,402.72873195938035,3.00060582995437,0.2014590817530794,11.487228931727293,2658.0,0.06514782653694084,194,11
195,652.236487610178,720.9948445035756,669.3620334311408,2.9804228457158435,0.11051912976734811,17.031829555124652,3088.0,0.040661626048655794,195,11
196,662.3144994840042,725.9664602683179,472.8001101958583,3.1780253619564443,0.3029998694969008,13.052015425943456,2866.0,0.06734312983028917,196,11
197,668.1584898428516,726.1328095055577,556.1523367429963,2.9673707862188925,0.10084030152651921,15.348013892485909,2946.0,0.0440526922771332,197,11
198,676.0871454127268,729.4252491694352,437.6959226052453,3.025405671750629,0.20503966550127448,14.876963380142506,2680.0,0.06355544299018144,198,11
199,679.2550574084199,729.4956260251504,427.2862123761908,3.1056659978694716,0.1765154691033548,10.279165305933512,2646.0,0.07308872975775094,199,11
200,693.5351715154147,733.715371254885,523.0307859698845,3.0602574822352895,0.13961976275629626,12.490965361851346,2842.0,0.05060149816405596,200,11
201,697.4009184845006,733.7269804822043,492.32596455894526,3.0227989401936446,0.116118026553751,15.487636542956487,2807.0,0.06035235024850314,201,11
202,706.5128255335813,728.5333855492461,547.9318473839841,2.888164134828255,0.01985877438499913,16.84458587023409,2865.0,0.08124302555307124,202,11
203,710.3671446646985,730.6105018979333,555.4727321867888,3.0219916565623324,0.14138574032942144,14.642364302688444,2956.0,0.03920521091995103,203,11
204,720.8237921234268,729.3733252131547,580.0291261615314,3.0410308208082943,0.09059052501955593,14.24756887242089,2937.0,0.07290702210678181,204,11
205,727.1474074074074,729.6543209876543,448.86550949006994,3.17680637833534,0.1898727226015386,10.418113059769524,2733.0,0.04013771417983799,205,11
206,741.1459508644222,729.9392174704277,599.1637620832141,3.0068771644472965,0.08015693587489979,14.720128822790521,2955.0,0.06540861773037762,206,11
207,745.9365107913669,728.8309352517986,636.3416229073646,3.031815705945885,0.0817710970613358,16.595240165749615,3070.0,0.06738795194139155,207,11
208,751.000798509449,730.1940377961139,442.9436242754663,3.0586494903498953,0.1422330126308125,12.733008097351705,2635.0,0.07463646731532272,208,11
209,760.5897537728356,736.5518268467038,586.4126057752665,2.897747749110365,0.11977105774953642,18.048839137245096,2934.0,0.0604202350105568,209,11
210,765.3218417399352,735.494215640907,523.8934248471246,2.919916767433054,0.055018927202455124,15.636800510245044,2801.0,0.044788830459299565,210,11
211,769.1094564408041,736.8927773641102,626.2666158139083,2.8242118807872836,0.07438912176761009,17.83670741242144,2990.0,0.04519148558093024,211,11
212,773.159977388355,738.9023930657622,623.2610812607203,2.993901218686844,0.040539861663826025,14.680164906272854,2946.0,0.05179599915178229,212,11
213,784.5988823346787,732.7413846631481,347.9994858246601,3.001241593431324,0.18554807838566936,8.9673881786547,2361.0,0.13012478780023737,213,11
214,790.3577354807223,731.9882869692533,475.93318525771116,3.105906776741329,0.22622204663108575,12.5428950726776,2713.0,0.10002515030974587,214,11
215,796.2668841135841,734.6064850345357,596.6670616479802,2.81973094082833,0.013103778801322914,20.37734784599779,2884.0,0.040423210617932484,215,11
